#                r          N_{at}(r)               M(r)          N_{el}(r)          Volume(r)     Density{at}(r)
5.000000000000e-01 1.000000000000e+00 7.428350000000e+00 3.955000000000e+00 5.235987755983e-01 1.909859317103e+00
5.979899497487e-01 1.000000000000e+00 7.428350000000e+00 3.955000000000e+00 8.957158602674e-01 1.116425469681e+00
6.959798994975e-01 1.000000000000e+00 7.428350000000e+00 3.955000000000e+00 1.412143073826e+00 7.081435433386e-01
7.939698492462e-01 1.000000000000e+00 7.428350000000e+00 3.955000000000e+00 2.096527874369e+00 4.769791101877e-01
8.919597989950e-01 1.000000000000e+00 7.428350000000e+00 3.955000000000e+00 2.972517719991e+00 3.364151518003e-01
9.899497487437e-01 1.035000000000e+00 7.538585000000e+00 4.025000000000e+00 4.063760068789e+00 2.546902333012e-01
1.087939698492e+00 1.480000000000e+00 1.079752500000e+01 5.755000000000e+00 5.393902378857e+00 2.743839053894e-01
1.185929648241e+00 1.995000000000e+00 1.408733500000e+01 7.530000000000e+00 6.986592108291e+00 2.855469403506e-01
1.283919597990e+00 2.160000000000e+00 1.634831000000e+01 8.660000000000e+00 8.865476715186e+00 2.436417205067e-01
1.381909547739e+00 2.300000000000e+00 1.815959000000e+01 9.565000000000e+00 1.105420365764e+01 2.080656437346e-01
1.479899497487e+00 2.525000000000e+00 2.100178500000e+01 1.098500000000e+01 1.357642039374e+01 1.859842231436e-01
1.577889447236e+00 2.930000000000e+00 2.580611000000e+01 1.339000000000e+01 1.645577438159e+01 1.780530002452e-01
1.675879396985e+00 3.020000000000e+00 2.624686000000e+01 1.364000000000e+01 1.971591307928e+01 1.531757615210e-01
1.773869346734e+00 3.240000000000e+00 2.646862000000e+01 1.386000000000e+01 2.338048394491e+01 1.385771144701e-01
1.871859296482e+00 3.480000000000e+00 2.770165000000e+01 1.457000000000e+01 2.747313443657e+01 1.266692014351e-01
1.969849246231e+00 3.565000000000e+00 2.835226500000e+01 1.491500000000e+01 3.201751201236e+01 1.113453162327e-01
2.067839195980e+00 3.880000000000e+00 3.018993500000e+01 1.592500000000e+01 3.703726413037e+01 1.047593576659e-01
2.165829145729e+00 4.695000000000e+00 3.566238500000e+01 1.886000000000e+01 4.255603824870e+01 1.103251193770e-01
2.263819095477e+00 5.415000000000e+00 4.066873500000e+01 2.153500000000e+01 4.859748182545e+01 1.114255265211e-01
2.361809045226e+00 5.935000000000e+00 4.510365500000e+01 2.387000000000e+01 5.518524231870e+01 1.075468685219e-01
2.459798994975e+00 6.770000000000e+00 5.232008000000e+01 2.763500000000e+01 6.234296718656e+01 1.085928422326e-01
2.557788944724e+00 7.825000000000e+00 5.998967500000e+01 3.172000000000e+01 7.009430388712e+01 1.116353193635e-01
2.655778894472e+00 8.750000000000e+00 6.610732000000e+01 3.502000000000e+01 7.846289987848e+01 1.115176728562e-01
2.753768844221e+00 9.645000000000e+00 7.188383500000e+01 3.816000000000e+01 8.747240261872e+01 1.102633483390e-01
2.851758793970e+00 1.042000000000e+01 7.655480500000e+01 4.073000000000e+01 9.714645956595e+01 1.072607282505e-01
2.949748743719e+00 1.129000000000e+01 8.295768000000e+01 4.414500000000e+01 1.075087181783e+02 1.050147391887e-01
3.047738693467e+00 1.236500000000e+01 8.974645500000e+01 4.785000000000e+01 1.185828259137e+02 1.042731095732e-01
3.145728643216e+00 1.354000000000e+01 9.682476000000e+01 5.174500000000e+01 1.303924302305e+02 1.038403838019e-01
3.243718592965e+00 1.462500000000e+01 1.046127450000e+02 5.591000000000e+01 1.429611785866e+02 1.023004996502e-01
3.341708542714e+00 1.566500000000e+01 1.121560600000e+02 5.994500000000e+01 1.563127184402e+02 1.002157735872e-01
3.439698492462e+00 1.675000000000e+01 1.206194000000e+02 6.441500000000e+01 1.704706972494e+02 9.825735607509e-02
3.537688442211e+00 1.793500000000e+01 1.291591650000e+02 6.899000000000e+01 1.854587624722e+02 9.670613434991e-02
3.635678391960e+00 1.928000000000e+01 1.401867050000e+02 7.478500000000e+01 2.013005615667e+02 9.577717940748e-02
3.733668341709e+00 2.057000000000e+01 1.497724800000e+02 7.988500000000e+01 2.180197419911e+02 9.434925393518e-02
3.831658291457e+00 2.193000000000e+01 1.606736000000e+02 8.563000000000e+01 2.356399512034e+02 9.306571270280e-02
3.929648241206e+00 2.356500000000e+01 1.728679550000e+02 9.211500000000e+01 2.541848366618e+02 9.270812653296e-02
4.027638190955e+00 2.529500000000e+01 1.859777100000e+02 9.907000000000e+01 2.736780458243e+02 9.242612034815e-02
4.125628140704e+00 2.701000000000e+01 1.976074600000e+02 1.053350000000e+02 2.941432261490e+02 9.182601399197e-02
4.223618090452e+00 2.900500000000e+01 2.114130950000e+02 1.127450000000e+02 3.156040250940e+02 9.190313713952e-02
4.321608040201e+00 3.099000000000e+01 2.253693100000e+02 1.202250000000e+02 3.380840901175e+02 9.166358579380e-02
4.419597989950e+00 3.310500000000e+01 2.398371550000e+02 1.280000000000e+02 3.616070686774e+02 9.154964841003e-02
4.517587939698e+00 3.515500000000e+01 2.540246650000e+02 1.356250000000e+02 3.861966082320e+02 9.102876423731e-02
4.615577889447e+00 3.755000000000e+01 2.714147100000e+02 1.448850000000e+02 4.118763562393e+02 9.116813682354e-02
4.713567839196e+00 3.998000000000e+01 2.904097650000e+02 1.549200000000e+02 4.386699601573e+02 9.113913336045e-02
4.811557788945e+00 4.257000000000e+01 3.095415450000e+02 1.650900000000e+02 4.666010674443e+02 9.123425334873e-02
4.909547738693e+00 4.541500000000e+01 3.307750600000e+02 1.763650000000e+02 4.956933255582e+02 9.161914768341e-02
5.007537688442e+00 4.819500000000e+01 3.526699500000e+02 1.879200000000e+02 5.259703819572e+02 9.163063482901e-02
5.105527638191e+00 5.104000000000e+01 3.731652250000e+02 1.988700000000e+02 5.574558840994e+02 9.155881470774e-02
5.203517587940e+00 5.388000000000e+01 3.937333500000e+02 2.098500000000e+02 5.901734794429e+02 9.129519010387e-02
5.301507537688e+00 5.694000000000e+01 4.148997700000e+02 2.212150000000e+02 6.241468154457e+02 9.122853564403e-02
5.399497487437e+00 6.012000000000e+01 4.380364400000e+02 2.335350000000e+02 6.593995395660e+02 9.117385802175e-02
5.497487437186e+00 6.341500000000e+01 4.622050550000e+02 2.464150000000e+02 6.959552992619e+02 9.111935790597e-02
5.595477386935e+00 6.704000000000e+01 4.871163700000e+02 2.598050000000e+02 7.338377419914e+02 9.135534487239e-02
5.693467336683e+00 7.072500000000e+01 5.146167150000e+02 2.744100000000e+02 7.730705152127e+02 9.148583293277e-02
5.791457286432e+00 7.434500000000e+01 5.419182250000e+02 2.888900000000e+02 8.136772663838e+02 9.136914974952e-02
5.889447236181e+00 7.839000000000e+01 5.727469950000e+02 3.052100000000e+02 8.556816429628e+02 9.161117413781e-02
5.987437185930e+00 8.264500000000e+01 6.049096350000e+02 3.222850000000e+02 8.991072924079e+02 9.191895194028e-02
6.085427135678e+00 8.667000000000e+01 6.320083850000e+02 3.368800000000e+02 9.439778621771e+02 9.181359380622e-02
6.183417085427e+00 9.082500000000e+01 6.612343900000e+02 3.525250000000e+02 9.903169997286e+02 9.171305756126e-02
6.281407035176e+00 9.522000000000e+01 6.942420650000e+02 3.700300000000e+02 1.038148352520e+03 9.172099514374e-02
6.379396984925e+00 9.958500000000e+01 7.251251750000e+02 3.865850000000e+02 1.087495568011e+03 9.157278698816e-02
6.477386934673e+00 1.043700000000e+02 7.591546300000e+02 4.047750000000e+02 1.138382293657e+03 9.168273310427e-02
6.575376884422e+00 1.090800000000e+02 7.921758100000e+02 4.224750000000e+02 1.190832176918e+03 9.159980903629e-02
6.673366834171e+00 1.139800000000e+02 8.262658300000e+02 4.407500000000e+02 1.244868865252e+03 9.155984472058e-02
6.771356783920e+00 1.187600000000e+02 8.603964600000e+02 4.589650000000e+02 1.300516006117e+03 9.131759966151e-02
6.869346733668e+00 1.239500000000e+02 8.976356350000e+02 4.788400000000e+02 1.357797246971e+03 9.128756173023e-02
6.967336683417e+00 1.293300000000e+02 9.334007050000e+02 4.981550000000e+02 1.416736235272e+03 9.128728183846e-02
7.065326633166e+00 1.347950000000e+02 9.713007250000e+02 5.185000000000e+02 1.477356618477e+03 9.124066478879e-02
7.163316582915e+00 1.401600000000e+02 1.009706160000e+03 5.390300000000e+02 1.539682044046e+03 9.103178188118e-02
7.261306532663e+00 1.455600000000e+02 1.048138275000e+03 5.595700000000e+02 1.603736159437e+03 9.076305921240e-02
7.359296482412e+00 1.513850000000e+02 1.089156730000e+03 5.815550000000e+02 1.669542612106e+03 9.067453499077e-02
7.457286432161e+00 1.577550000000e+02 1.137195995000e+03 6.070700000000e+02 1.737125049513e+03 9.081384212623e-02
7.555276381910e+00 1.636750000000e+02 1.178801260000e+03 6.293650000000e+02 1.806507119116e+03 9.060301964385e-02
7.653266331658e+00 1.701950000000e+02 1.224530395000e+03 6.538600000000e+02 1.877712468372e+03 9.063954299007e-02
7.751256281407e+00 1.763000000000e+02 1.266016615000e+03 6.762000000000e+02 1.950764744740e+03 9.037481350602e-02
7.849246231156e+00 1.826450000000e+02 1.310295245000e+03 6.999350000000e+02 2.025687595678e+03 9.016444608226e-02
7.947236180905e+00 1.896200000000e+02 1.359889305000e+03 7.264800000000e+02 2.102504668644e+03 9.018767131791e-02
8.045226130653e+00 1.965800000000e+02 1.409799255000e+03 7.531800000000e+02 2.181239611095e+03 9.012306534323e-02
8.143216080402e+00 2.035750000000e+02 1.460677390000e+03 7.803000000000e+02 2.261916070491e+03 9.000112897901e-02
8.241206030151e+00 2.106500000000e+02 1.508477945000e+03 8.060350000000e+02 2.344557694290e+03 8.984637081572e-02
8.339195979899e+00 2.179400000000e+02 1.558712990000e+03 8.330200000000e+02 2.429188129948e+03 8.971721758111e-02
8.437185929648e+00 2.254450000000e+02 1.610546045000e+03 8.608350000000e+02 2.515831024925e+03 8.961054926442e-02
8.535175879397e+00 2.330900000000e+02 1.666496995000e+03 8.906100000000e+02 2.604510026679e+03 8.949476009400e-02
8.633165829146e+00 2.408950000000e+02 1.722812230000e+03 9.206450000000e+02 2.695248782667e+03 8.937764912435e-02
8.731155778894e+00 2.489000000000e+02 1.779055000000e+03 9.507700000000e+02 2.788070940347e+03 8.927319473765e-02
8.829145728643e+00 2.573600000000e+02 1.839456170000e+03 9.830700000000e+02 2.883000147179e+03 8.926811892529e-02
8.927135678392e+00 2.657650000000e+02 1.895502440000e+03 1.013335000000e+03 2.980060050619e+03 8.918108879879e-02
9.025125628141e+00 2.750000000000e+02 1.959450165000e+03 1.047665000000e+03 3.079274298127e+03 8.930675651964e-02
9.123115577889e+00 2.836650000000e+02 2.020292550000e+03 1.080265000000e+03 3.180666537159e+03 8.918413693670e-02
9.221105527638e+00 2.924100000000e+02 2.082169330000e+03 1.113395000000e+03 3.284260415175e+03 8.903374368516e-02
9.319095477387e+00 3.018250000000e+02 2.149127200000e+03 1.149230000000e+03 3.390079579632e+03 8.903183329778e-02
9.417085427136e+00 3.116650000000e+02 2.218231810000e+03 1.186245000000e+03 3.498147677988e+03 8.909429466375e-02
9.515075376884e+00 3.210750000000e+02 2.286158235000e+03 1.222490000000e+03 3.608488357702e+03 8.897770151168e-02
9.613065326633e+00 3.306700000000e+02 2.355395115000e+03 1.259445000000e+03 3.721125266231e+03 8.886290472422e-02
9.711055276382e+00 3.402300000000e+02 2.426991580000e+03 1.297465000000e+03 3.836082051034e+03 8.869205493356e-02
9.809045226131e+00 3.508450000000e+02 2.502475840000e+03 1.337805000000e+03 3.953382359569e+03 8.874552676413e-02
9.907035175879e+00 3.615700000000e+02 2.580627565000e+03 1.379490000000e+03 4.073049839294e+03 8.877131738282e-02
1.000502512563e+01 3.722850000000e+02 2.655747070000e+03 1.419710000000e+03 4.195108137666e+03 8.874264685989e-02
1.010301507538e+01 3.830450000000e+02 2.732055285000e+03 1.460505000000e+03 4.319580902145e+03 8.867642687507e-02
1.020100502513e+01 3.940700000000e+02 2.812563775000e+03 1.503405000000e+03 4.446491780188e+03 8.862492488030e-02
1.029899497487e+01 4.052950000000e+02 2.892547470000e+03 1.546175000000e+03 4.575864419253e+03 8.857233581807e-02
1.039698492462e+01 4.167100000000e+02 2.975461395000e+03 1.590350000000e+03 4.707722466798e+03 8.851626299955e-02
1.049497487437e+01 4.282600000000e+02 3.056479945000e+03 1.633760000000e+03 4.842089570282e+03 8.844528664411e-02
1.059296482412e+01 4.409700000000e+02 3.147987305000e+03 1.682590000000e+03 4.978989377162e+03 8.856616606227e-02
1.069095477387e+01 4.529450000000e+02 3.234466070000e+03 1.728725000000e+03 5.118445534897e+03 8.849268726450e-02
1.078894472362e+01 4.652300000000e+02 3.323809195000e+03 1.776325000000e+03 5.260481690944e+03 8.843866918136e-02
1.088693467337e+01 4.782200000000e+02 3.416274960000e+03 1.825775000000e+03 5.405121492763e+03 8.847534706488e-02
1.098492462312e+01 4.907050000000e+02 3.505837130000e+03 1.873610000000e+03 5.552388587810e+03 8.837727983905e-02
1.108291457286e+01 5.035500000000e+02 3.599749580000e+03 1.923640000000e+03 5.702306623544e+03 8.830637025391e-02
1.118090452261e+01 5.164250000000e+02 3.691776375000e+03 1.972790000000e+03 5.854899247423e+03 8.820390892760e-02
1.127889447236e+01 5.297150000000e+02 3.792076855000e+03 2.026005000000e+03 6.010190106906e+03 8.813614720628e-02
1.137688442211e+01 5.429350000000e+02 3.887103090000e+03 2.076730000000e+03 6.168202849450e+03 8.802158639262e-02
1.147487437186e+01 5.566750000000e+02 3.985113650000e+03 2.129120000000e+03 6.328961122513e+03 8.795677350898e-02
1.157286432161e+01 5.704850000000e+02 4.084707405000e+03 2.182270000000e+03 6.492488573553e+03 8.786846423170e-02
1.167085427136e+01 5.843500000000e+02 4.186042030000e+03 2.236235000000e+03 6.658808850029e+03 8.775593550751e-02
1.176884422111e+01 5.983950000000e+02 4.289073550000e+03 2.291085000000e+03 6.827945599399e+03 8.763909894839e-02
1.186683417085e+01 6.133550000000e+02 4.396384095000e+03 2.348385000000e+03 6.999922469121e+03 8.762311335672e-02
1.196482412060e+01 6.281400000000e+02 4.500391905000e+03 2.404070000000e+03 7.174763106652e+03 8.754853514503e-02
1.206281407035e+01 6.432050000000e+02 4.609737580000e+03 2.462380000000e+03 7.352491159452e+03 8.748123405401e-02
1.216080402010e+01 6.585800000000e+02 4.721102460000e+03 2.521780000000e+03 7.533130274977e+03 8.742448039000e-02
1.225879396985e+01 6.734050000000e+02 4.827775955000e+03 2.578755000000e+03 7.716704100686e+03 8.726588336335e-02
1.235678391960e+01 6.894200000000e+02 4.943063140000e+03 2.640290000000e+03 7.903236284038e+03 8.723261904650e-02
1.245477386935e+01 7.048950000000e+02 5.055427800000e+03 2.700245000000e+03 8.092750472490e+03 8.710203068736e-02
1.255276381910e+01 7.208550000000e+02 5.168357155000e+03 2.760670000000e+03 8.285270313501e+03 8.700440332350e-02
1.265075376884e+01 7.370850000000e+02 5.284587110000e+03 2.822725000000e+03 8.480819454528e+03 8.691200230733e-02
1.274874371859e+01 7.534750000000e+02 5.401111710000e+03 2.885015000000e+03 8.679421543029e+03 8.681166092286e-02
1.284673366834e+01 7.701450000000e+02 5.523003870000e+03 2.949935000000e+03 8.881100226464e+03 8.671729632159e-02
1.294472361809e+01 7.869650000000e+02 5.641330605000e+03 3.013320000000e+03 9.085879152289e+03 8.661407298178e-02
1.304271356784e+01 8.038650000000e+02 5.764621635000e+03 3.079015000000e+03 9.293781967963e+03 8.649492776687e-02
1.314070351759e+01 8.210700000000e+02 5.887749505000e+03 3.144790000000e+03 9.504832320944e+03 8.638448025966e-02
1.323869346734e+01 8.383900000000e+02 6.010034295000e+03 3.210240000000e+03 9.719053858690e+03 8.626251198828e-02
1.333668341709e+01 8.557450000000e+02 6.132319810000e+03 3.275695000000e+03 9.936470228659e+03 8.612162873812e-02
1.343467336683e+01 8.737750000000e+02 6.260543645000e+03 3.344265000000e+03 1.015710507831e+04 8.602598804121e-02
1.353266331658e+01 8.917850000000e+02 6.391739520000e+03 3.414195000000e+03 1.038098205510e+04 8.590564893250e-02
1.363065326633e+01 9.096650000000e+02 6.520794675000e+03 3.483090000000e+03 1.060812480649e+04 8.575172488956e-02
1.372864321608e+01 9.284550000000e+02 6.653067995000e+03 3.553880000000e+03 1.083855697993e+04 8.566223360907e-02
1.382663316583e+01 9.474250000000e+02 6.794064700000e+03 3.628865000000e+03 1.107230222289e+04 8.556711882752e-02
1.392462311558e+01 9.663100000000e+02 6.933353565000e+03 3.702980000000e+03 1.130938418282e+04 8.544320224512e-02
1.402261306533e+01 9.850900000000e+02 7.070640475000e+03 3.776110000000e+03 1.154982650717e+04 8.529045863920e-02
1.412060301508e+01 1.004620000000e+03 7.211698340000e+03 3.851345000000e+03 1.179365284342e+04 8.518310767139e-02
1.421859296482e+01 1.024210000000e+03 7.350280910000e+03 3.925510000000e+03 1.204088683901e+04 8.506101034698e-02
1.431658291457e+01 1.043660000000e+03 7.485562650000e+03 3.998075000000e+03 1.229155214141e+04 8.490872332422e-02
1.441457286432e+01 1.064220000000e+03 7.633647755000e+03 4.077130000000e+03 1.254567239807e+04 8.482765739714e-02
1.451256281407e+01 1.083930000000e+03 7.774764300000e+03 4.152535000000e+03 1.280327125645e+04 8.466039485450e-02
1.461055276382e+01 1.104115000000e+03 7.920643535000e+03 4.230320000000e+03 1.306437236400e+04 8.451343617871e-02
1.470854271357e+01 1.124340000000e+03 8.064354350000e+03 4.307200000000e+03 1.332899936820e+04 8.435291869566e-02
1.480653266332e+01 1.145055000000e+03 8.215121920000e+03 4.387535000000e+03 1.359717591649e+04 8.421270762642e-02
1.490452261307e+01 1.166250000000e+03 8.370154700000e+03 4.470145000000e+03 1.386892565633e+04 8.409086824025e-02
1.500251256281e+01 1.187850000000e+03 8.525772205000e+03 4.553230000000e+03 1.414427223518e+04 8.398099105062e-02
1.510050251256e+01 1.209815000000e+03 8.682035770000e+03 4.636760000000e+03 1.442323930050e+04 8.387956233647e-02
1.519849246231e+01 1.231180000000e+03 8.832438900000e+03 4.717280000000e+03 1.470585049975e+04 8.372042133987e-02
1.529648241206e+01 1.253845000000e+03 8.993524785000e+03 4.803365000000e+03 1.499212948038e+04 8.363354929938e-02
1.539447236181e+01 1.275970000000e+03 9.151511550000e+03 4.887760000000e+03 1.528209988986e+04 8.349441563636e-02
1.549246231156e+01 1.298635000000e+03 9.313738140000e+03 4.974415000000e+03 1.557578537563e+04 8.337525002313e-02
1.559045226131e+01 1.321405000000e+03 9.481939900000e+03 5.063875000000e+03 1.587320958517e+04 8.324749905870e-02
1.568844221106e+01 1.344300000000e+03 9.645414800000e+03 5.151240000000e+03 1.617439616592e+04 8.311283996074e-02
1.578643216080e+01 1.367990000000e+03 9.816547790000e+03 5.242540000000e+03 1.647936876535e+04 8.301228156724e-02
1.588442211055e+01 1.391510000000e+03 9.984762970000e+03 5.332390000000e+03 1.678815103092e+04 8.288643564365e-02
1.598241206030e+01 1.414485000000e+03 1.014629014000e+04 5.418860000000e+03 1.710076661007e+04 8.271471286947e-02
1.608040201005e+01 1.438145000000e+03 1.031672891000e+04 5.509815000000e+03 1.741723915028e+04 8.257020458820e-02
1.617839195980e+01 1.462270000000e+03 1.048810410000e+04 5.601455000000e+03 1.773759229899e+04 8.243903543116e-02
1.627638190955e+01 1.486700000000e+03 1.066286129000e+04 5.694820000000e+03 1.806184970367e+04 8.231161394826e-02
1.637437185930e+01 1.510740000000e+03 1.083405846000e+04 5.786360000000e+03 1.839003501177e+04 8.214992516506e-02
1.647236180905e+01 1.535625000000e+03 1.101609269500e+04 5.883300000000e+03 1.872217187076e+04 8.202173394201e-02
1.657035175879e+01 1.560105000000e+03 1.119129408000e+04 5.976875000000e+03 1.905828392808e+04 8.185967875634e-02
1.666834170854e+01 1.585045000000e+03 1.137319046000e+04 6.073825000000e+03 1.939839483121e+04 8.171011126395e-02
1.676633165829e+01 1.609200000000e+03 1.154838137500e+04 6.167260000000e+03 1.974252822759e+04 8.150931742122e-02
1.686432160804e+01 1.634070000000e+03 1.172621473000e+04 6.262245000000e+03 2.009070776468e+04 8.133461593983e-02
1.696231155779e+01 1.658955000000e+03 1.190909443500e+04 6.359615000000e+03 2.044295708995e+04 8.115044182211e-02
1.706030150754e+01 1.684475000000e+03 1.209264235000e+04 6.457600000000e+03 2.079929985085e+04 8.098710110817e-02
1.715829145729e+01 1.710180000000e+03 1.227757182500e+04 6.556315000000e+03 2.115975969484e+04 8.082227892300e-02
1.725628140704e+01 1.735495000000e+03 1.245530891000e+04 6.651525000000e+03 2.152436026937e+04 8.062934174492e-02
1.735427135678e+01 1.762040000000e+03 1.264819948500e+04 6.754370000000e+03 2.189312522191e+04 8.048371267873e-02
1.745226130653e+01 1.788730000000e+03 1.283597375000e+04 6.854920000000e+03 2.226607819992e+04 8.033430871570e-02
