#                r          N_{at}(r)               M(r)          N_{el}(r)          Volume(r)     Density{at}(r)
5.000000000000e-01 1.000000000000e+00 7.628570000000e+00 4.045000000000e+00 5.235987755983e-01 1.909859317103e+00
5.979899497487e-01 1.000000000000e+00 7.628570000000e+00 4.045000000000e+00 8.957158602674e-01 1.116425469681e+00
6.959798994975e-01 1.000000000000e+00 7.628570000000e+00 4.045000000000e+00 1.412143073826e+00 7.081435433386e-01
7.939698492462e-01 1.000000000000e+00 7.628570000000e+00 4.045000000000e+00 2.096527874369e+00 4.769791101877e-01
8.919597989950e-01 1.000000000000e+00 7.628570000000e+00 4.045000000000e+00 2.972517719991e+00 3.364151518003e-01
9.899497487437e-01 1.045000000000e+00 7.898795000000e+00 4.195000000000e+00 4.063760068789e+00 2.571510085022e-01
1.087939698492e+00 1.470000000000e+00 1.019745500000e+01 5.475000000000e+00 5.393902378857e+00 2.725299600827e-01
1.185929648241e+00 2.035000000000e+00 1.408781500000e+01 7.550000000000e+00 6.986592108291e+00 2.912721922874e-01
1.283919597990e+00 2.175000000000e+00 1.606845500000e+01 8.540000000000e+00 8.865476715186e+00 2.453336768991e-01
1.381909547739e+00 2.380000000000e+00 1.868041000000e+01 9.845000000000e+00 1.105420365764e+01 2.153027096037e-01
1.479899497487e+00 2.605000000000e+00 2.154252500000e+01 1.127500000000e+01 1.357642039374e+01 1.918767925897e-01
1.577889447236e+00 3.015000000000e+00 2.654685500000e+01 1.377500000000e+01 1.645577438159e+01 1.832183603206e-01
1.675879396985e+00 3.120000000000e+00 2.709281500000e+01 1.408000000000e+01 1.971591307928e+01 1.582478066044e-01
1.773869346734e+00 3.365000000000e+00 2.733977500000e+01 1.432500000000e+01 2.338048394491e+01 1.439234537629e-01
1.871859296482e+00 3.505000000000e+00 2.774621000000e+01 1.459000000000e+01 2.747313443657e+01 1.275791813305e-01
1.969849246231e+00 3.650000000000e+00 2.874771500000e+01 1.513000000000e+01 3.201751201236e+01 1.140001133939e-01
2.067839195980e+00 3.945000000000e+00 3.049509500000e+01 1.609000000000e+01 3.703726413037e+01 1.065143469051e-01
2.165829145729e+00 4.790000000000e+00 3.561270000000e+01 1.888000000000e+01 4.255603824870e+01 1.125574700353e-01
2.263819095477e+00 5.565000000000e+00 4.086947500000e+01 2.170000000000e+01 4.859748182545e+01 1.145121062031e-01
2.361809045226e+00 6.010000000000e+00 4.456241000000e+01 2.365000000000e+01 5.518524231870e+01 1.089059275176e-01
2.459798994975e+00 6.825000000000e+00 5.180955500000e+01 2.742000000000e+01 6.234296718656e+01 1.094750588238e-01
2.557788944724e+00 7.995000000000e+00 6.080448000000e+01 3.217500000000e+01 7.009430388712e+01 1.140606234263e-01
2.655778894472e+00 8.950000000000e+00 6.758708000000e+01 3.580000000000e+01 7.846289987848e+01 1.140666482358e-01
2.753768844221e+00 9.890000000000e+00 7.381960500000e+01 3.916500000000e+01 8.747240261872e+01 1.130642317339e-01
2.851758793970e+00 1.072500000000e+01 7.937676000000e+01 4.218000000000e+01 9.714645956595e+01 1.104003177050e-01
2.949748743719e+00 1.160000000000e+01 8.582846000000e+01 4.563000000000e+01 1.075087181783e+02 1.078982262700e-01
3.047738693467e+00 1.266000000000e+01 9.106702000000e+01 4.861000000000e+01 1.185828259137e+02 1.067608222561e-01
3.145728643216e+00 1.372000000000e+01 9.710475000000e+01 5.196000000000e+01 1.303924302305e+02 1.052208320356e-01
3.243718592965e+00 1.475000000000e+01 1.041320600000e+02 5.575000000000e+01 1.429611785866e+02 1.031748628951e-01
3.341708542714e+00 1.585000000000e+01 1.126756750000e+02 6.027000000000e+01 1.563127184402e+02 1.013992985226e-01
3.439698492462e+00 1.688500000000e+01 1.200492550000e+02 6.422000000000e+01 1.704706972494e+02 9.904928103450e-02
3.537688442211e+00 1.796500000000e+01 1.280191750000e+02 6.847000000000e+01 1.854587624722e+02 9.686789537753e-02
3.635678391960e+00 1.926000000000e+01 1.375250150000e+02 7.353500000000e+01 2.013005615667e+02 9.567782548693e-02
3.733668341709e+00 2.053500000000e+01 1.462554500000e+02 7.824500000000e+01 2.180197419911e+02 9.418871801453e-02
3.831658291457e+00 2.191500000000e+01 1.570369600000e+02 8.395000000000e+01 2.356399512034e+02 9.300205626457e-02
3.929648241206e+00 2.349000000000e+01 1.693757300000e+02 9.045500000000e+01 2.541848366618e+02 9.241306565921e-02
4.027638190955e+00 2.516500000000e+01 1.810690850000e+02 9.672000000000e+01 2.736780458243e+02 9.195110964859e-02
4.125628140704e+00 2.699500000000e+01 1.929944050000e+02 1.031800000000e+02 2.941432261490e+02 9.177501842700e-02
4.223618090452e+00 2.878500000000e+01 2.059193850000e+02 1.100850000000e+02 3.156040250940e+02 9.120606111226e-02
4.321608040201e+00 3.084000000000e+01 2.209270300000e+02 1.180950000000e+02 3.380840901175e+02 9.121990919266e-02
4.419597989950e+00 3.294000000000e+01 2.360491450000e+02 1.261800000000e+02 3.616070686774e+02 9.109335202013e-02
4.517587939698e+00 3.516500000000e+01 2.526690300000e+02 1.350100000000e+02 3.861966082320e+02 9.105465778425e-02
4.615577889447e+00 3.765500000000e+01 2.708702400000e+02 1.447100000000e+02 4.118763562393e+02 9.142306769881e-02
4.713567839196e+00 4.014500000000e+01 2.892115700000e+02 1.544650000000e+02 4.386699601573e+02 9.151527035406e-02
4.811557788945e+00 4.286000000000e+01 3.095945950000e+02 1.652800000000e+02 4.666010674443e+02 9.185576928651e-02
4.909547738693e+00 4.588000000000e+01 3.328249400000e+02 1.775800000000e+02 4.956933255582e+02 9.255722769382e-02
5.007537688442e+00 4.880500000000e+01 3.552299850000e+02 1.894550000000e+02 5.259703819572e+02 9.279039595041e-02
5.105527638191e+00 5.192500000000e+01 3.781572650000e+02 2.016700000000e+02 5.574558840994e+02 9.314638428095e-02
5.203517587940e+00 5.497000000000e+01 4.003729900000e+02 2.135100000000e+02 5.901734794429e+02 9.314210467724e-02
5.301507537688e+00 5.818000000000e+01 4.230144950000e+02 2.256500000000e+02 6.241468154457e+02 9.321524769529e-02
5.399497487437e+00 6.117500000000e+01 4.447349750000e+02 2.372400000000e+02 6.593995395660e+02 9.277379847772e-02
5.497487437186e+00 6.456000000000e+01 4.692591450000e+02 2.503250000000e+02 6.959552992619e+02 9.276457851312e-02
5.595477386935e+00 6.787500000000e+01 4.923227250000e+02 2.626900000000e+02 7.338377419914e+02 9.249319858612e-02
5.693467336683e+00 7.144000000000e+01 5.185580150000e+02 2.766550000000e+02 7.730705152127e+02 9.241071622082e-02
5.791457286432e+00 7.519000000000e+01 5.464706850000e+02 2.915100000000e+02 8.136772663838e+02 9.240764502880e-02
5.889447236181e+00 7.927500000000e+01 5.744856100000e+02 3.065550000000e+02 8.556816429628e+02 9.264543729781e-02
5.987437185930e+00 8.323000000000e+01 6.022554300000e+02 3.214450000000e+02 8.991072924079e+02 9.256959731369e-02
6.085427135678e+00 8.736000000000e+01 6.310401100000e+02 3.368700000000e+02 9.439778621771e+02 9.254454315117e-02
6.183417085427e+00 9.153500000000e+01 6.612019300000e+02 3.529550000000e+02 9.903169997286e+02 9.242999971230e-02
6.281407035176e+00 9.566500000000e+01 6.904517050000e+02 3.685900000000e+02 1.038148352520e+03 9.214964293663e-02
6.379396984925e+00 1.003100000000e+02 7.246270350000e+02 3.867900000000e+02 1.087495568011e+03 9.223945637177e-02
6.477386934673e+00 1.050400000000e+02 7.589713900000e+02 4.050900000000e+02 1.138382293657e+03 9.227128758525e-02
6.575376884422e+00 1.098550000000e+02 7.925060100000e+02 4.230700000000e+02 1.190832176918e+03 9.225061442685e-02
6.673366834171e+00 1.146800000000e+02 8.265978650000e+02 4.413100000000e+02 1.244868865252e+03 9.212215294399e-02
6.771356783920e+00 1.194250000000e+02 8.613075500000e+02 4.597900000000e+02 1.300516006117e+03 9.182893515978e-02
6.869346733668e+00 1.247600000000e+02 8.991857800000e+02 4.800350000000e+02 1.357797246971e+03 9.188411618769e-02
6.967336683417e+00 1.302350000000e+02 9.375614150000e+02 5.006050000000e+02 1.416736235272e+03 9.192607399854e-02
7.065326633166e+00 1.356200000000e+02 9.755157600000e+02 5.209000000000e+02 1.477356618477e+03 9.179909461520e-02
7.163316582915e+00 1.410850000000e+02 1.015238370000e+03 5.421150000000e+02 1.539682044046e+03 9.163255527045e-02
7.261306532663e+00 1.468100000000e+02 1.057018175000e+03 5.643650000000e+02 1.603736159437e+03 9.154248916579e-02
7.359296482412e+00 1.525750000000e+02 1.097732215000e+03 5.861600000000e+02 1.669542612106e+03 9.138730505808e-02
7.457286432161e+00 1.582800000000e+02 1.137621430000e+03 6.075500000000e+02 1.737125049513e+03 9.111606561909e-02
7.555276381910e+00 1.640000000000e+02 1.178778630000e+03 6.295150000000e+02 1.806507119116e+03 9.078292483025e-02
7.653266331658e+00 1.702150000000e+02 1.222096650000e+03 6.527550000000e+02 1.877712468372e+03 9.065019424810e-02
7.751256281407e+00 1.763500000000e+02 1.266936855000e+03 6.766750000000e+02 1.950764744740e+03 9.040044447979e-02
7.849246231156e+00 1.828050000000e+02 1.313332520000e+03 7.014650000000e+02 2.025687595678e+03 9.024343160813e-02
7.947236180905e+00 1.896450000000e+02 1.361440130000e+03 7.272150000000e+02 2.102504668644e+03 9.019956189792e-02
8.045226130653e+00 1.967200000000e+02 1.410289945000e+03 7.534500000000e+02 2.181239611095e+03 9.018724903001e-02
8.143216080402e+00 2.034550000000e+02 1.457285700000e+03 7.786400000000e+02 2.261916070491e+03 8.994807661267e-02
8.241206030151e+00 2.101050000000e+02 1.503619260000e+03 8.034950000000e+02 2.344557694290e+03 8.961391758954e-02
8.339195979899e+00 2.178850000000e+02 1.557735260000e+03 8.325400000000e+02 2.429188129948e+03 8.969457627172e-02
8.437185929648e+00 2.253950000000e+02 1.608918750000e+03 8.600750000000e+02 2.515831024925e+03 8.959067511568e-02
8.535175879397e+00 2.334400000000e+02 1.665240850000e+03 8.902500000000e+02 2.604510026679e+03 8.962914237566e-02
8.633165829146e+00 2.415050000000e+02 1.721684620000e+03 9.205000000000e+02 2.695248782667e+03 8.960397331524e-02
8.731155778894e+00 2.494500000000e+02 1.781700405000e+03 9.523250000000e+02 2.788070940347e+03 8.947046374972e-02
8.829145728643e+00 2.573600000000e+02 1.837596825000e+03 9.822350000000e+02 2.883000147179e+03 8.926811892529e-02
8.927135678392e+00 2.659600000000e+02 1.896785200000e+03 1.014020000000e+03 2.980060050619e+03 8.924652372181e-02
9.025125628141e+00 2.748300000000e+02 1.959789870000e+03 1.047715000000e+03 3.079274298127e+03 8.925154870652e-02
9.123115577889e+00 2.835650000000e+02 2.022312435000e+03 1.081130000000e+03 3.180666537159e+03 8.915269698573e-02
9.221105527638e+00 2.926700000000e+02 2.085779230000e+03 1.115200000000e+03 3.284260415175e+03 8.911290914926e-02
9.319095477387e+00 3.020500000000e+02 2.151163295000e+03 1.150255000000e+03 3.390079579632e+03 8.909820342117e-02
9.417085427136e+00 3.115600000000e+02 2.219373635000e+03 1.186675000000e+03 3.498147677988e+03 8.906427877830e-02
9.515075376884e+00 3.210600000000e+02 2.288310600000e+03 1.223420000000e+03 3.608488357702e+03 8.897354464639e-02
9.613065326633e+00 3.309100000000e+02 2.356863740000e+03 1.260210000000e+03 3.721125266231e+03 8.892740134361e-02
9.711055276382e+00 3.410350000000e+02 2.426534690000e+03 1.297595000000e+03 3.836082051034e+03 8.890190445953e-02
9.809045226131e+00 3.511850000000e+02 2.500296895000e+03 1.336940000000e+03 3.953382359569e+03 8.883152907028e-02
9.907035175879e+00 3.614700000000e+02 2.574299805000e+03 1.376445000000e+03 4.073049839294e+03 8.874676575592e-02
1.000502512563e+01 3.718800000000e+02 2.648947495000e+03 1.416320000000e+03 4.195108137666e+03 8.864610584433e-02
1.010301507538e+01 3.823700000000e+02 2.723765685000e+03 1.456320000000e+03 4.319580902145e+03 8.852016171525e-02
1.020100502513e+01 3.931300000000e+02 2.803023370000e+03 1.498500000000e+03 4.446491780188e+03 8.841352226303e-02
1.029899497487e+01 4.043850000000e+02 2.883262260000e+03 1.541390000000e+03 4.575864419253e+03 8.837346628947e-02
1.039698492462e+01 4.158650000000e+02 2.965809630000e+03 1.585440000000e+03 4.707722466798e+03 8.833677068539e-02
1.049497487437e+01 4.273450000000e+02 3.047581595000e+03 1.629190000000e+03 4.842089570282e+03 8.825631864037e-02
1.059296482412e+01 4.395000000000e+02 3.134944110000e+03 1.675815000000e+03 4.978989377162e+03 8.827092542433e-02
1.069095477387e+01 4.513500000000e+02 3.221918395000e+03 1.722135000000e+03 5.118445534897e+03 8.818106921775e-02
1.078894472362e+01 4.632600000000e+02 3.306228955000e+03 1.767215000000e+03 5.260481690944e+03 8.806417876095e-02
1.088693467337e+01 4.760350000000e+02 3.397618780000e+03 1.816030000000e+03 5.405121492763e+03 8.807110083231e-02
1.098492462312e+01 4.889050000000e+02 3.493360110000e+03 1.866935000000e+03 5.552388587810e+03 8.805309503614e-02
1.108291457286e+01 5.021250000000e+02 3.587251630000e+03 1.917130000000e+03 5.702306623544e+03 8.805647138069e-02
1.118090452261e+01 5.153600000000e+02 3.682027570000e+03 1.967760000000e+03 5.854899247423e+03 8.802200998195e-02
1.127889447236e+01 5.281650000000e+02 3.774919510000e+03 2.017280000000e+03 6.010190106906e+03 8.787825186979e-02
1.137688442211e+01 5.414550000000e+02 3.869265485000e+03 2.067725000000e+03 6.168202849450e+03 8.778164616430e-02
1.147487437186e+01 5.550050000000e+02 3.965415040000e+03 2.119160000000e+03 6.328961122513e+03 8.769290713855e-02
1.157286432161e+01 5.690050000000e+02 4.064245595000e+03 2.172040000000e+03 6.492488573553e+03 8.764050849744e-02
1.167085427136e+01 5.826250000000e+02 4.162928335000e+03 2.224660000000e+03 6.658808850029e+03 8.749688016610e-02
1.176884422111e+01 5.971600000000e+02 4.268546285000e+03 2.280970000000e+03 6.827945599399e+03 8.745822463093e-02
1.186683417085e+01 6.112850000000e+02 4.371499425000e+03 2.335845000000e+03 6.999922469121e+03 8.732739579568e-02
1.196482412060e+01 6.261000000000e+02 4.477257615000e+03 2.392335000000e+03 7.174763106652e+03 8.726420519996e-02
1.206281407035e+01 6.410300000000e+02 4.584238280000e+03 2.449520000000e+03 7.352491159452e+03 8.718541594926e-02
1.216080402010e+01 6.561600000000e+02 4.691760015000e+03 2.506990000000e+03 7.533130274977e+03 8.710323279283e-02
1.225879396985e+01 6.711300000000e+02 4.800073685000e+03 2.564775000000e+03 7.716704100686e+03 8.697106837883e-02
1.235678391960e+01 6.868050000000e+02 4.909835690000e+03 2.623580000000e+03 7.903236284038e+03 8.690174193414e-02
1.245477386935e+01 7.023700000000e+02 5.020933145000e+03 2.682940000000e+03 8.092750472490e+03 8.679002304440e-02
1.255276381910e+01 7.180350000000e+02 5.132965870000e+03 2.742840000000e+03 8.285270313501e+03 8.666404025828e-02
1.265075376884e+01 7.339500000000e+02 5.247972730000e+03 2.804190000000e+03 8.480819454528e+03 8.654234463253e-02
1.274874371859e+01 7.500650000000e+02 5.363826055000e+03 2.866035000000e+03 8.679421543029e+03 8.641877759727e-02
1.284673366834e+01 7.669600000000e+02 5.488689965000e+03 2.932470000000e+03 8.881100226464e+03 8.635866958405e-02
1.294472361809e+01 7.838450000000e+02 5.610075865000e+03 2.997280000000e+03 9.085879152289e+03 8.627068298642e-02
1.304271356784e+01 8.010700000000e+02 5.733505715000e+03 3.063175000000e+03 9.293781967963e+03 8.619418905688e-02
1.314070351759e+01 8.181450000000e+02 5.854943355000e+03 3.128075000000e+03 9.504832320944e+03 8.607674205859e-02
1.323869346734e+01 8.357050000000e+02 5.980805080000e+03 3.195310000000e+03 9.719053858690e+03 8.598625052919e-02
1.333668341709e+01 8.533000000000e+02 6.105767030000e+03 3.262105000000e+03 9.936470228659e+03 8.587556550402e-02
1.343467336683e+01 8.714800000000e+02 6.236851435000e+03 3.332070000000e+03 1.015710507831e+04 8.580003783371e-02
1.353266331658e+01 8.901900000000e+02 6.371352190000e+03 3.403865000000e+03 1.038098205510e+04 8.575200258271e-02
1.363065326633e+01 9.085550000000e+02 6.500745745000e+03 3.473180000000e+03 1.060812480649e+04 8.564708811159e-02
1.372864321608e+01 9.274450000000e+02 6.635992355000e+03 3.545455000000e+03 1.083855697993e+04 8.556904777244e-02
1.382663316583e+01 9.468100000000e+02 6.777383575000e+03 3.620800000000e+03 1.107230222289e+04 8.551157482343e-02
1.392462311558e+01 9.654650000000e+02 6.912638400000e+03 3.692920000000e+03 1.130938418282e+04 8.536848553320e-02
1.402261306533e+01 9.844450000000e+02 7.047708210000e+03 3.765135000000e+03 1.154982650717e+04 8.523461364451e-02
1.412060301508e+01 1.004495000000e+03 7.186853850000e+03 3.839785000000e+03 1.179365284342e+04 8.517250874995e-02
1.421859296482e+01 1.024540000000e+03 7.334326050000e+03 3.918280000000e+03 1.204088683901e+04 8.508841696615e-02
1.431658291457e+01 1.043935000000e+03 7.472624620000e+03 3.992170000000e+03 1.229155214141e+04 8.493109641403e-02
1.441457286432e+01 1.063800000000e+03 7.616445170000e+03 4.068850000000e+03 1.254567239807e+04 8.479417971762e-02
1.451256281407e+01 1.084070000000e+03 7.764938885000e+03 4.147970000000e+03 1.280327125645e+04 8.467132955996e-02
1.461055276382e+01 1.104650000000e+03 7.912080075000e+03 4.226560000000e+03 1.306437236400e+04 8.455438724662e-02
1.470854271357e+01 1.125625000000e+03 8.067676200000e+03 4.309310000000e+03 1.332899936820e+04 8.444932503229e-02
1.480653266332e+01 1.147465000000e+03 8.229452880000e+03 4.395315000000e+03 1.359717591649e+04 8.438995031379e-02
1.490452261307e+01 1.168290000000e+03 8.377724670000e+03 4.474620000000e+03 1.386892565633e+04 8.423795966251e-02
1.500251256281e+01 1.190945000000e+03 8.535544355000e+03 4.559240000000e+03 1.414427223518e+04 8.419980754033e-02
1.510050251256e+01 1.212735000000e+03 8.691913715000e+03 4.642740000000e+03 1.442323930050e+04 8.408201339057e-02
1.519849246231e+01 1.235010000000e+03 8.851210200000e+03 4.727830000000e+03 1.470585049975e+04 8.398086190399e-02
1.529648241206e+01 1.257155000000e+03 9.012486120000e+03 4.813765000000e+03 1.499212948038e+04 8.385433181092e-02
1.539447236181e+01 1.279745000000e+03 9.179278415000e+03 4.902500000000e+03 1.528209988986e+04 8.374143666274e-02
1.549246231156e+01 1.302070000000e+03 9.342103460000e+03 4.989225000000e+03 1.557578537563e+04 8.359578464897e-02
1.559045226131e+01 1.324800000000e+03 9.513927395000e+03 5.080355000000e+03 1.587320958517e+04 8.346138144851e-02
1.568844221106e+01 1.347695000000e+03 9.675936320000e+03 5.167055000000e+03 1.617439616592e+04 8.332273960491e-02
1.578643216080e+01 1.370365000000e+03 9.843418760000e+03 5.256145000000e+03 1.647936876535e+04 8.315640116514e-02
1.588442211055e+01 1.393450000000e+03 1.000743661000e+04 5.343835000000e+03 1.678815103092e+04 8.300199333648e-02
1.598241206030e+01 1.417245000000e+03 1.017845304500e+04 5.435150000000e+03 1.710076661007e+04 8.287610914269e-02
1.608040201005e+01 1.441060000000e+03 1.035347292000e+04 5.528280000000e+03 1.741723915028e+04 8.273756750805e-02
1.617839195980e+01 1.465110000000e+03 1.052542239000e+04 5.620145000000e+03 1.773759229899e+04 8.259914735346e-02
1.627638190955e+01 1.489055000000e+03 1.069649012500e+04 5.711535000000e+03 1.806184970367e+04 8.244199926530e-02
1.637437185930e+01 1.512715000000e+03 1.085908909000e+04 5.798870000000e+03 1.839003501177e+04 8.225732028414e-02
1.647236180905e+01 1.537115000000e+03 1.103632918000e+04 5.893340000000e+03 1.872217187076e+04 8.210131872578e-02
1.657035175879e+01 1.560745000000e+03 1.120776932000e+04 5.984820000000e+03 1.905828392808e+04 8.189325995401e-02
1.666834170854e+01 1.585160000000e+03 1.138149224500e+04 6.077705000000e+03 1.939839483121e+04 8.171603958951e-02
1.676633165829e+01 1.609635000000e+03 1.155713843500e+04 6.171445000000e+03 1.974252822759e+04 8.153135107340e-02
1.686432160804e+01 1.634740000000e+03 1.173659929500e+04 6.267340000000e+03 2.009070776468e+04 8.136796469030e-02
1.696231155779e+01 1.659505000000e+03 1.192095396000e+04 6.365325000000e+03 2.044295708995e+04 8.117734595332e-02
1.706030150754e+01 1.684905000000e+03 1.209942454000e+04 6.460910000000e+03 2.079929985085e+04 8.100777488099e-02
1.715829145729e+01 1.710205000000e+03 1.228175548000e+04 6.558260000000e+03 2.115975969484e+04 8.082346041090e-02
1.725628140704e+01 1.736145000000e+03 1.247154463500e+04 6.659340000000e+03 2.152436026937e+04 8.065954008725e-02
1.735427135678e+01 1.762720000000e+03 1.266232336500e+04 6.761225000000e+03 2.189312522191e+04 8.051477265729e-02
1.745226130653e+01 1.788720000000e+03 1.284989717500e+04 6.861295000000e+03 2.226607819992e+04 8.033385960203e-02
