#                r          N_{at}(r)               M(r)          N_{el}(r)          Volume(r)     Density{at}(r)
5.000000000000e-01 1.000000000000e+00 7.592665000000e+00 4.025000000000e+00 5.235987755983e-01 1.909859317103e+00
5.979899497487e-01 1.000000000000e+00 7.592665000000e+00 4.025000000000e+00 8.957158602674e-01 1.116425469681e+00
6.959798994975e-01 1.000000000000e+00 7.592665000000e+00 4.025000000000e+00 1.412143073826e+00 7.081435433386e-01
7.939698492462e-01 1.000000000000e+00 7.592665000000e+00 4.025000000000e+00 2.096527874369e+00 4.769791101877e-01
8.919597989950e-01 1.000000000000e+00 7.592665000000e+00 4.025000000000e+00 2.972517719991e+00 3.364151518003e-01
9.899497487437e-01 1.020000000000e+00 7.837690000000e+00 4.150000000000e+00 4.063760068789e+00 2.509990704997e-01
1.087939698492e+00 1.500000000000e+00 1.109685500000e+01 5.900000000000e+00 5.393902378857e+00 2.780917960028e-01
1.185929648241e+00 1.930000000000e+00 1.397089500000e+01 7.440000000000e+00 6.986592108291e+00 2.762434059532e-01
1.283919597990e+00 2.145000000000e+00 1.688228000000e+01 8.895000000000e+00 8.865476715186e+00 2.419497641143e-01
1.381909547739e+00 2.315000000000e+00 1.908383000000e+01 9.995000000000e+00 1.105420365764e+01 2.094225935851e-01
1.479899497487e+00 2.520000000000e+00 2.165584500000e+01 1.128000000000e+01 1.357642039374e+01 1.856159375532e-01
1.577889447236e+00 2.910000000000e+00 2.644991500000e+01 1.367500000000e+01 1.645577438159e+01 1.768376214039e-01
1.675879396985e+00 3.040000000000e+00 2.746119500000e+01 1.420500000000e+01 1.971591307928e+01 1.541901705377e-01
1.773869346734e+00 3.280000000000e+00 2.777807000000e+01 1.448000000000e+01 2.338048394491e+01 1.402879430438e-01
1.871859296482e+00 3.430000000000e+00 2.821452500000e+01 1.476500000000e+01 2.747313443657e+01 1.248492416444e-01
1.969849246231e+00 3.530000000000e+00 2.881526500000e+01 1.509500000000e+01 3.201751201236e+01 1.102521644604e-01
2.067839195980e+00 3.890000000000e+00 3.147335000000e+01 1.650500000000e+01 3.703726413037e+01 1.050293560104e-01
2.165829145729e+00 4.730000000000e+00 3.640565500000e+01 1.921000000000e+01 4.255603824870e+01 1.111475643564e-01
2.263819095477e+00 5.520000000000e+00 4.248217500000e+01 2.242000000000e+01 4.859748182545e+01 1.135861322985e-01
2.361809045226e+00 5.905000000000e+00 4.485504000000e+01 2.372000000000e+01 5.518524231870e+01 1.070032449237e-01
2.459798994975e+00 6.715000000000e+00 5.100141000000e+01 2.698500000000e+01 6.234296718656e+01 1.077106256413e-01
2.557788944724e+00 7.955000000000e+00 6.199237000000e+01 3.269500000000e+01 7.009430388712e+01 1.134899636468e-01
2.655778894472e+00 8.930000000000e+00 6.943086500000e+01 3.663000000000e+01 7.846289987848e+01 1.138117506979e-01
2.753768844221e+00 9.875000000000e+00 7.533832000000e+01 3.985000000000e+01 8.747240261872e+01 1.128927490770e-01
2.851758793970e+00 1.083500000000e+01 8.151586000000e+01 4.321000000000e+01 9.714645956595e+01 1.115326286559e-01
2.949748743719e+00 1.189000000000e+01 8.822447500000e+01 4.686000000000e+01 1.075087181783e+02 1.105956819268e-01
3.047738693467e+00 1.281500000000e+01 9.361109000000e+01 4.984000000000e+01 1.185828259137e+02 1.080679255301e-01
3.145728643216e+00 1.383500000000e+01 9.967834000000e+01 5.318500000000e+01 1.303924302305e+02 1.061027850738e-01
3.243718592965e+00 1.489500000000e+01 1.071266000000e+02 5.717500000000e+01 1.429611785866e+02 1.041891242592e-01
3.341708542714e+00 1.597500000000e+01 1.151299850000e+02 6.144000000000e+01 1.563127184402e+02 1.021989775330e-01
3.439698492462e+00 1.704500000000e+01 1.227141300000e+02 6.551000000000e+01 1.704706972494e+02 9.998785876418e-02
3.537688442211e+00 1.816500000000e+01 1.308732500000e+02 6.986000000000e+01 1.854587624722e+02 9.794630222838e-02
3.635678391960e+00 1.933500000000e+01 1.395726800000e+02 7.449500000000e+01 2.013005615667e+02 9.605040268898e-02
3.733668341709e+00 2.065000000000e+01 1.494978400000e+02 7.976000000000e+01 2.180197419911e+02 9.471619318238e-02
3.831658291457e+00 2.203000000000e+01 1.608587400000e+02 8.571500000000e+01 2.356399512034e+02 9.349008895772e-02
3.929648241206e+00 2.352000000000e+01 1.721763350000e+02 9.170500000000e+01 2.541848366618e+02 9.253109000871e-02
4.027638190955e+00 2.501000000000e+01 1.829485050000e+02 9.745000000000e+01 2.736780458243e+02 9.138475073758e-02
4.125628140704e+00 2.649500000000e+01 1.927256150000e+02 1.027300000000e+02 2.941432261490e+02 9.007516626128e-02
4.223618090452e+00 2.814000000000e+01 2.046192800000e+02 1.090700000000e+02 3.156040250940e+02 8.916236094143e-02
4.321608040201e+00 2.983000000000e+01 2.166038000000e+02 1.154850000000e+02 3.380840901175e+02 8.823248674505e-02
4.419597989950e+00 3.192000000000e+01 2.308113100000e+02 1.231300000000e+02 3.616070686774e+02 8.827261070075e-02
4.517587939698e+00 3.399000000000e+01 2.455038750000e+02 1.309850000000e+02 3.861966082320e+02 8.801216601981e-02
4.615577889447e+00 3.615500000000e+01 2.616787750000e+02 1.395950000000e+02 4.118763562393e+02 8.778119805206e-02
4.713567839196e+00 3.842500000000e+01 2.788874650000e+02 1.487000000000e+02 4.386699601573e+02 8.759432714795e-02
4.811557788945e+00 4.105500000000e+01 2.978639000000e+02 1.588300000000e+02 4.666010674443e+02 8.798736836345e-02
4.909547738693e+00 4.372000000000e+01 3.170812400000e+02 1.690800000000e+02 4.956933255582e+02 8.819969474224e-02
5.007537688442e+00 4.620500000000e+01 3.365857700000e+02 1.793750000000e+02 5.259703819572e+02 8.784715182643e-02
5.105527638191e+00 4.865500000000e+01 3.548965600000e+02 1.890900000000e+02 5.574558840994e+02 8.728044924775e-02
5.203517587940e+00 5.148500000000e+01 3.751044450000e+02 1.998850000000e+02 5.901734794429e+02 8.723706129357e-02
5.301507537688e+00 5.427000000000e+01 3.959377900000e+02 2.109550000000e+02 6.241468154457e+02 8.695069598527e-02
5.399497487437e+00 5.715000000000e+01 4.159462750000e+02 2.216900000000e+02 6.593995395660e+02 8.666976024522e-02
5.497487437186e+00 5.991000000000e+01 4.376738500000e+02 2.331500000000e+02 6.959552992619e+02 8.608311491203e-02
5.595477386935e+00 6.287000000000e+01 4.591542150000e+02 2.445950000000e+02 7.338377419914e+02 8.567288979903e-02
5.693467336683e+00 6.615500000000e+01 4.835258650000e+02 2.575350000000e+02 7.730705152127e+02 8.557434114765e-02
5.791457286432e+00 6.939000000000e+01 5.058774350000e+02 2.695250000000e+02 8.136772663838e+02 8.527951175088e-02
5.889447236181e+00 7.288000000000e+01 5.303468950000e+02 2.826200000000e+02 8.556816429628e+02 8.517186339028e-02
5.987437185930e+00 7.645000000000e+01 5.567784050000e+02 2.966750000000e+02 8.991072924079e+02 8.502878426807e-02
6.085427135678e+00 8.011000000000e+01 5.823339100000e+02 3.103800000000e+02 9.439778621771e+02 8.486427829487e-02
6.183417085427e+00 8.368000000000e+01 6.077241300000e+02 3.239550000000e+02 9.903169997286e+02 8.449819605534e-02
6.281407035176e+00 8.767500000000e+01 6.368225100000e+02 3.394450000000e+02 1.038148352520e+03 8.445324773396e-02
6.379396984925e+00 9.143000000000e+01 6.645600600000e+02 3.542050000000e+02 1.087495568011e+03 8.407390585257e-02
6.477386934673e+00 9.537000000000e+01 6.918474250000e+02 3.688450000000e+02 1.138382293657e+03 8.377677738962e-02
6.575376884422e+00 9.959500000000e+01 7.221622700000e+02 3.850400000000e+02 1.190832176918e+03 8.363479080463e-02
6.673366834171e+00 1.036850000000e+02 7.489156700000e+02 3.995100000000e+02 1.244868865252e+03 8.328989734912e-02
6.771356783920e+00 1.076550000000e+02 7.764395600000e+02 4.142800000000e+02 1.300516006117e+03 8.277868130313e-02
6.869346733668e+00 1.120200000000e+02 8.075169150000e+02 4.309100000000e+02 1.357797246971e+03 8.250127200501e-02
6.967336683417e+00 1.163950000000e+02 8.387439200000e+02 4.475800000000e+02 1.416736235272e+03 8.215714195923e-02
7.065326633166e+00 1.210400000000e+02 8.735939050000e+02 4.660950000000e+02 1.477356618477e+03 8.193011659212e-02
7.163316582915e+00 1.254700000000e+02 9.054461500000e+02 4.831150000000e+02 1.539682044046e+03 8.149085097483e-02
7.261306532663e+00 1.301900000000e+02 9.402769500000e+02 5.016550000000e+02 1.603736159437e+03 8.117918850551e-02
7.359296482412e+00 1.347350000000e+02 9.721295900000e+02 5.187000000000e+02 1.669542612106e+03 8.070174371293e-02
7.457286432161e+00 1.396400000000e+02 1.007394890000e+03 5.375150000000e+02 1.737125049513e+03 8.038569246304e-02
7.555276381910e+00 1.445500000000e+02 1.042950605000e+03 5.564750000000e+02 1.806507119116e+03 8.001629136715e-02
7.653266331658e+00 1.496050000000e+02 1.079002720000e+03 5.757550000000e+02 1.877712468372e+03 7.967407285190e-02
7.751256281407e+00 1.549400000000e+02 1.116487325000e+03 5.958300000000e+02 1.950764744740e+03 7.942526151232e-02
7.849246231156e+00 1.602750000000e+02 1.153486095000e+03 6.156700000000e+02 2.025687595678e+03 7.912128224607e-02
7.947236180905e+00 1.657500000000e+02 1.190521810000e+03 6.356150000000e+02 2.102504668644e+03 7.883454551705e-02
8.045226130653e+00 1.717050000000e+02 1.233911745000e+03 6.587500000000e+02 2.181239611095e+03 7.871899956638e-02
8.143216080402e+00 1.772700000000e+02 1.273763055000e+03 6.800600000000e+02 2.261916070491e+03 7.837160817443e-02
8.241206030151e+00 1.828650000000e+02 1.315185395000e+03 7.020950000000e+02 2.344557694290e+03 7.799552147741e-02
8.339195979899e+00 1.889700000000e+02 1.359591035000e+03 7.257800000000e+02 2.429188129948e+03 7.779142243875e-02
8.437185929648e+00 1.947750000000e+02 1.401914165000e+03 7.483300000000e+02 2.515831024925e+03 7.741974642586e-02
8.535175879397e+00 2.007600000000e+02 1.445753550000e+03 7.717000000000e+02 2.604510026679e+03 7.708167676207e-02
8.633165829146e+00 2.069800000000e+02 1.488999485000e+03 7.948950000000e+02 2.695248782667e+03 7.679439513380e-02
8.731155778894e+00 2.136950000000e+02 1.538509135000e+03 8.212350000000e+02 2.788070940347e+03 7.664618461013e-02
8.829145728643e+00 2.202650000000e+02 1.587354445000e+03 8.472050000000e+02 2.883000147179e+03 7.640131417112e-02
8.927135678392e+00 2.269950000000e+02 1.632964720000e+03 8.717550000000e+02 2.980060050619e+03 7.617128384806e-02
9.025125628141e+00 2.337600000000e+02 1.682267110000e+03 8.980250000000e+02 3.079274298127e+03 7.591399056012e-02
9.123115577889e+00 2.406750000000e+02 1.731640760000e+03 9.244050000000e+02 3.180666537159e+03 7.566810201202e-02
9.221105527638e+00 2.477400000000e+02 1.782693640000e+03 9.516350000000e+02 3.284260415175e+03 7.543250798728e-02
9.319095477387e+00 2.551100000000e+02 1.838365630000e+03 9.811650000000e+02 3.390079579632e+03 7.525192079051e-02
9.417085427136e+00 2.626950000000e+02 1.892152960000e+03 1.009930000000e+03 3.498147677988e+03 7.509545741965e-02
9.515075376884e+00 2.702300000000e+02 1.946681640000e+03 1.039015000000e+03 3.608488357702e+03 7.488731380364e-02
9.613065326633e+00 2.779550000000e+02 2.001991130000e+03 1.068565000000e+03 3.721125266231e+03 7.469649101104e-02
9.711055276382e+00 2.857700000000e+02 2.056080420000e+03 1.097575000000e+03 3.836082051034e+03 7.449527830692e-02
9.809045226131e+00 2.937500000000e+02 2.113561405000e+03 1.128265000000e+03 3.953382359569e+03 7.430346303058e-02
9.907035175879e+00 3.020550000000e+02 2.172561180000e+03 1.159815000000e+03 4.073049839294e+03 7.415941663320e-02
1.000502512563e+01 3.105600000000e+02 2.234880805000e+03 1.192990000000e+03 4.195108137666e+03 7.402908096971e-02
1.010301507538e+01 3.191700000000e+02 2.298476810000e+03 1.226810000000e+03 4.319580902145e+03 7.388911267792e-02
1.020100502513e+01 3.279550000000e+02 2.360140765000e+03 1.259845000000e+03 4.446491780188e+03 7.375589930499e-02
1.029899497487e+01 3.361600000000e+02 2.419634285000e+03 1.291545000000e+03 4.575864419253e+03 7.346371509296e-02
1.039698492462e+01 3.450250000000e+02 2.480640840000e+03 1.324340000000e+03 4.707722466798e+03 7.328915466733e-02
1.049497487437e+01 3.538500000000e+02 2.542788830000e+03 1.357605000000e+03 4.842089570282e+03 7.307795423111e-02
1.059296482412e+01 3.630450000000e+02 2.609405595000e+03 1.393125000000e+03 4.978989377162e+03 7.291539959198e-02
1.069095477387e+01 3.720700000000e+02 2.675747435000e+03 1.428445000000e+03 5.118445534897e+03 7.269199163365e-02
1.078894472362e+01 3.812900000000e+02 2.742098170000e+03 1.463870000000e+03 5.260481690944e+03 7.248195553202e-02
1.088693467337e+01 3.907800000000e+02 2.809742685000e+03 1.500015000000e+03 5.405121492763e+03 7.229809737362e-02
1.098492462312e+01 4.004950000000e+02 2.879760435000e+03 1.537395000000e+03 5.552388587810e+03 7.213021813338e-02
1.108291457286e+01 4.104250000000e+02 2.953073215000e+03 1.576370000000e+03 5.702306623544e+03 7.197525967920e-02
1.118090452261e+01 4.201950000000e+02 3.024335155000e+03 1.614330000000e+03 5.854899247423e+03 7.176810090881e-02
1.127889447236e+01 4.300100000000e+02 3.096115920000e+03 1.652550000000e+03 6.010190106906e+03 7.154682170634e-02
1.137688442211e+01 4.401850000000e+02 3.167250045000e+03 1.690700000000e+03 6.168202849450e+03 7.136357391996e-02
1.147487437186e+01 4.501100000000e+02 3.238419185000e+03 1.728700000000e+03 6.328961122513e+03 7.111909700297e-02
1.157286432161e+01 4.605550000000e+02 3.312335300000e+03 1.768270000000e+03 6.492488573553e+03 7.093658999664e-02
1.167085427136e+01 4.710150000000e+02 3.387378415000e+03 1.808340000000e+03 6.658808850029e+03 7.073562413463e-02
1.176884422111e+01 4.819950000000e+02 3.464438605000e+03 1.849620000000e+03 6.827945599399e+03 7.059151145586e-02
1.186683417085e+01 4.922400000000e+02 3.537054090000e+03 1.888450000000e+03 6.999922469121e+03 7.032077886169e-02
1.196482412060e+01 5.031600000000e+02 3.614355320000e+03 1.929820000000e+03 7.174763106652e+03 7.012914468681e-02
1.206281407035e+01 5.135750000000e+02 3.690231455000e+03 1.970280000000e+03 7.352491159452e+03 6.985047501075e-02
1.216080402010e+01 5.243900000000e+02 3.770820880000e+03 2.013105000000e+03 7.533130274977e+03 6.961116838001e-02
1.225879396985e+01 5.354200000000e+02 3.853084480000e+03 2.056835000000e+03 7.716704100686e+03 6.938454462085e-02
1.235678391960e+01 5.466250000000e+02 3.933287045000e+03 2.099680000000e+03 7.903236284038e+03 6.916470422427e-02
1.245477386935e+01 5.585000000000e+02 4.019681585000e+03 2.145725000000e+03 8.092750472490e+03 6.901238360166e-02
1.255276381910e+01 5.698300000000e+02 4.100980530000e+03 2.189150000000e+03 8.285270313501e+03 6.877627143576e-02
1.265075376884e+01 5.815000000000e+02 4.187497840000e+03 2.235150000000e+03 8.480819454528e+03 6.856648736810e-02
1.274874371859e+01 5.937250000000e+02 4.275748865000e+03 2.282250000000e+03 8.679421543029e+03 6.840605644703e-02
1.284673366834e+01 6.055900000000e+02 4.360282435000e+03 2.327440000000e+03 8.881100226464e+03 6.818862354413e-02
1.294472361809e+01 6.172200000000e+02 4.442598755000e+03 2.371465000000e+03 9.085879152289e+03 6.793178619864e-02
1.304271356784e+01 6.295850000000e+02 4.530220340000e+03 2.418355000000e+03 9.293781967963e+03 6.774260491265e-02
1.314070351759e+01 6.419900000000e+02 4.619174375000e+03 2.465845000000e+03 9.504832320944e+03 6.754353767876e-02
1.323869346734e+01 6.541750000000e+02 4.703410785000e+03 2.511060000000e+03 9.719053858690e+03 6.730850651837e-02
1.333668341709e+01 6.671050000000e+02 4.796575315000e+03 2.560805000000e+03 9.936470228659e+03 6.713701995261e-02
1.343467336683e+01 6.799250000000e+02 4.890685720000e+03 2.610895000000e+03 1.015710507831e+04 6.694082563465e-02
1.353266331658e+01 6.933350000000e+02 4.989614300000e+03 2.663555000000e+03 1.038098205510e+04 6.678896045865e-02
1.363065326633e+01 7.067100000000e+02 5.086205445000e+03 2.715070000000e+03 1.060812480649e+04 6.661969131131e-02
1.372864321608e+01 7.203400000000e+02 5.186329535000e+03 2.768385000000e+03 1.083855697993e+04 6.646087678774e-02
1.382663316583e+01 7.334450000000e+02 5.281852405000e+03 2.819275000000e+03 1.107230222289e+04 6.624141802090e-02
1.392462311558e+01 7.468650000000e+02 5.379371875000e+03 2.871250000000e+03 1.130938418282e+04 6.603940479225e-02
1.402261306533e+01 7.601650000000e+02 5.471837080000e+03 2.920835000000e+03 1.154982650717e+04 6.581614014097e-02
1.412060301508e+01 7.739300000000e+02 5.569864170000e+03 2.973220000000e+03 1.179365284342e+04 6.562258617200e-02
1.421859296482e+01 7.876650000000e+02 5.667467675000e+03 3.025380000000e+03 1.204088683901e+04 6.541586267948e-02
1.431658291457e+01 8.019250000000e+02 5.771000250000e+03 3.080560000000e+03 1.229155214141e+04 6.524196381175e-02
1.441457286432e+01 8.160700000000e+02 5.875682930000e+03 3.136245000000e+03 1.254567239807e+04 6.504792840962e-02
1.451256281407e+01 8.304350000000e+02 5.981621855000e+03 3.192620000000e+03 1.280327125645e+04 6.486115800928e-02
1.461055276382e+01 8.452250000000e+02 6.090488880000e+03 3.250545000000e+03 1.306437236400e+04 6.469694650842e-02
1.470854271357e+01 8.602000000000e+02 6.200447695000e+03 3.309095000000e+03 1.332899936820e+04 6.453597725066e-02
1.480653266332e+01 8.753500000000e+02 6.311214685000e+03 3.368070000000e+03 1.359717591649e+04 6.437733874861e-02
1.490452261307e+01 8.906700000000e+02 6.417438090000e+03 3.425035000000e+03 1.386892565633e+04 6.422054758032e-02
1.500251256281e+01 9.055250000000e+02 6.525768050000e+03 3.482765000000e+03 1.414427223518e+04 6.402061448930e-02
1.510050251256e+01 9.206050000000e+02 6.632864510000e+03 3.540030000000e+03 1.442323930050e+04 6.382789474818e-02
1.519849246231e+01 9.357200000000e+02 6.742783700000e+03 3.598635000000e+03 1.470585049975e+04 6.362909782172e-02
1.529648241206e+01 9.506650000000e+02 6.850604770000e+03 3.656210000000e+03 1.499212948038e+04 6.341093846902e-02
1.539447236181e+01 9.668200000000e+02 6.965557165000e+03 3.717625000000e+03 1.528209988986e+04 6.326486588677e-02
1.549246231156e+01 9.826200000000e+02 7.081527945000e+03 3.779390000000e+03 1.557578537563e+04 6.308638545683e-02
1.559045226131e+01 9.981950000000e+02 7.196877060000e+03 3.840735000000e+03 1.587320958517e+04 6.288551755359e-02
1.568844221106e+01 1.013625000000e+03 7.308894110000e+03 3.900460000000e+03 1.617439616592e+04 6.266849096571e-02
1.578643216080e+01 1.029735000000e+03 7.425437830000e+03 3.962640000000e+03 1.647936876535e+04 6.248631332074e-02
1.588442211055e+01 1.045795000000e+03 7.539141250000e+03 4.023460000000e+03 1.678815103092e+04 6.229363782075e-02
1.598241206030e+01 1.061755000000e+03 7.656636395000e+03 4.085990000000e+03 1.710076661007e+04 6.208815219866e-02
1.608040201005e+01 1.078220000000e+03 7.776679935000e+03 4.149930000000e+03 1.741723915028e+04 6.190533360064e-02
1.617839195980e+01 1.094485000000e+03 7.894579585000e+03 4.212800000000e+03 1.773759229899e+04 6.170425960587e-02
1.627638190955e+01 1.111140000000e+03 8.012357880000e+03 4.275805000000e+03 1.806184970367e+04 6.151861621206e-02
1.637437185930e+01 1.128085000000e+03 8.135639975000e+03 4.341545000000e+03 1.839003501177e+04 6.134218881464e-02
1.647236180905e+01 1.144405000000e+03 8.256489610000e+03 4.405790000000e+03 1.872217187076e+04 6.112565400531e-02
1.657035175879e+01 1.160690000000e+03 8.369904925000e+03 4.466610000000e+03 1.905828392808e+04 6.090212552084e-02
1.666834170854e+01 1.177700000000e+03 8.492884815000e+03 4.532240000000e+03 1.939839483121e+04 6.071120885246e-02
1.676633165829e+01 1.194735000000e+03 8.616092115000e+03 4.597995000000e+03 1.974252822759e+04 6.051580558616e-02
1.686432160804e+01 1.211730000000e+03 8.738793980000e+03 4.663445000000e+03 2.009070776468e+04 6.031295732299e-02
1.696231155779e+01 1.228105000000e+03 8.855639535000e+03 4.725925000000e+03 2.044295708995e+04 6.007472375920e-02
1.706030150754e+01 1.245490000000e+03 8.981481940000e+03 4.793055000000e+03 2.079929985085e+04 5.988134258995e-02
1.715829145729e+01 1.263245000000e+03 9.108866155000e+03 4.861050000000e+03 2.115975969484e+04 5.970034717871e-02
1.725628140704e+01 1.280810000000e+03 9.237020140000e+03 4.929330000000e+03 2.152436026937e+04 5.950513669028e-02
1.735427135678e+01 1.298380000000e+03 9.363694780000e+03 4.996945000000e+03 2.189312522191e+04 5.930537494484e-02
1.745226130653e+01 1.315840000000e+03 9.489775655000e+03 5.064250000000e+03 2.226607819992e+04 5.909617258081e-02
