#                r          N_{at}(r)               M(r)          N_{el}(r)          Volume(r)     Density{at}(r)
5.000000000000e-01 1.000000000000e+00 7.383355000000e+00 3.935000000000e+00 5.235987755983e-01 1.909859317103e+00
5.979899497487e-01 1.000000000000e+00 7.383355000000e+00 3.935000000000e+00 8.957158602674e-01 1.116425469681e+00
6.959798994975e-01 1.000000000000e+00 7.383355000000e+00 3.935000000000e+00 1.412143073826e+00 7.081435433386e-01
7.939698492462e-01 1.000000000000e+00 7.383355000000e+00 3.935000000000e+00 2.096527874369e+00 4.769791101877e-01
8.919597989950e-01 1.000000000000e+00 7.383355000000e+00 3.935000000000e+00 2.972517719991e+00 3.364151518003e-01
9.899497487437e-01 1.040000000000e+00 7.723495000000e+00 4.115000000000e+00 4.063760068789e+00 2.559206209017e-01
1.087939698492e+00 1.515000000000e+00 1.124783000000e+01 5.980000000000e+00 5.393902378857e+00 2.808727139628e-01
1.185929648241e+00 1.995000000000e+00 1.404230000000e+01 7.510000000000e+00 6.986592108291e+00 2.855469403506e-01
1.283919597990e+00 2.145000000000e+00 1.606329000000e+01 8.520000000000e+00 8.865476715186e+00 2.419497641143e-01
1.381909547739e+00 2.300000000000e+00 1.805473500000e+01 9.515000000000e+00 1.105420365764e+01 2.080656437346e-01
1.479899497487e+00 2.520000000000e+00 2.084683500000e+01 1.091000000000e+01 1.357642039374e+01 1.856159375532e-01
1.577889447236e+00 2.890000000000e+00 2.534080500000e+01 1.315500000000e+01 1.645577438159e+01 1.756222425627e-01
1.675879396985e+00 3.005000000000e+00 2.617192000000e+01 1.359500000000e+01 1.971591307928e+01 1.524149547585e-01
1.773869346734e+00 3.225000000000e+00 2.639368000000e+01 1.381500000000e+01 2.338048394491e+01 1.379355537550e-01
1.871859296482e+00 3.410000000000e+00 2.721106000000e+01 1.430000000000e+01 2.747313443657e+01 1.241212577281e-01
1.969849246231e+00 3.495000000000e+00 2.787163500000e+01 1.465000000000e+01 3.201751201236e+01 1.091590126881e-01
2.067839195980e+00 3.860000000000e+00 3.004958500000e+01 1.584500000000e+01 3.703726413037e+01 1.042193609769e-01
2.165829145729e+00 4.750000000000e+00 3.585755500000e+01 1.897500000000e+01 4.255603824870e+01 1.116175329160e-01
2.263819095477e+00 5.485000000000e+00 4.156403000000e+01 2.198000000000e+01 4.859748182545e+01 1.128659303727e-01
2.361809045226e+00 5.955000000000e+00 4.517711000000e+01 2.390000000000e+01 5.518524231870e+01 1.079092842541e-01
2.459798994975e+00 6.870000000000e+00 5.307485500000e+01 2.802500000000e+01 6.234296718656e+01 1.101968723985e-01
2.557788944724e+00 8.005000000000e+00 6.063933500000e+01 3.210000000000e+01 7.009430388712e+01 1.142032883712e-01
2.655778894472e+00 9.005000000000e+00 6.751235000000e+01 3.579000000000e+01 7.846289987848e+01 1.147676164652e-01
2.753768844221e+00 9.760000000000e+00 7.273848500000e+01 3.860000000000e+01 8.747240261872e+01 1.115780487080e-01
2.851758793970e+00 1.088000000000e+01 8.005252000000e+01 4.256500000000e+01 9.714645956595e+01 1.119958467721e-01
2.949748743719e+00 1.177000000000e+01 8.727507500000e+01 4.639000000000e+01 1.075087181783e+02 1.094794933792e-01
3.047738693467e+00 1.296000000000e+01 9.508460500000e+01 5.063500000000e+01 1.185828259137e+02 1.092906995607e-01
3.145728643216e+00 1.387500000000e+01 1.006910800000e+02 5.371000000000e+01 1.303924302305e+02 1.064095513480e-01
3.243718592965e+00 1.487000000000e+01 1.076793750000e+02 5.747000000000e+01 1.429611785866e+02 1.040142516102e-01
3.341708542714e+00 1.580500000000e+01 1.143864700000e+02 6.105500000000e+01 1.563127184402e+02 1.011114140789e-01
3.439698492462e+00 1.699500000000e+01 1.232215350000e+02 6.575500000000e+01 1.704706972494e+02 9.969455322365e-02
3.537688442211e+00 1.811000000000e+01 1.312650350000e+02 7.005000000000e+01 1.854587624722e+02 9.764974034440e-02
3.635678391960e+00 1.924000000000e+01 1.399043150000e+02 7.462500000000e+01 2.013005615667e+02 9.557847156638e-02
3.733668341709e+00 2.062500000000e+01 1.505503450000e+02 8.027000000000e+01 2.180197419911e+02 9.460152466763e-02
3.831658291457e+00 2.204500000000e+01 1.612174600000e+02 8.594000000000e+01 2.356399512034e+02 9.355374539596e-02
3.929648241206e+00 2.372000000000e+01 1.741924450000e+02 9.280000000000e+01 2.541848366618e+02 9.331791900538e-02
4.027638190955e+00 2.534000000000e+01 1.863353450000e+02 9.925000000000e+01 2.736780458243e+02 9.259054712876e-02
4.125628140704e+00 2.695000000000e+01 1.976731500000e+02 1.053250000000e+02 2.941432261490e+02 9.162203173209e-02
4.223618090452e+00 2.882500000000e+01 2.108381250000e+02 1.123800000000e+02 3.156040250940e+02 9.133280220813e-02
4.321608040201e+00 3.089000000000e+01 2.257749600000e+02 1.203450000000e+02 3.380840901175e+02 9.136780139304e-02
4.419597989950e+00 3.293000000000e+01 2.400120500000e+02 1.279850000000e+02 3.616070686774e+02 9.106569769347e-02
4.517587939698e+00 3.520000000000e+01 2.564756450000e+02 1.367750000000e+02 3.861966082320e+02 9.114528519850e-02
4.615577889447e+00 3.762500000000e+01 2.742563000000e+02 1.462400000000e+02 4.118763562393e+02 9.135023030587e-02
4.713567839196e+00 4.018500000000e+01 2.941074200000e+02 1.567450000000e+02 4.386699601573e+02 9.160645507978e-02
4.811557788945e+00 4.319000000000e+01 3.153064600000e+02 1.680850000000e+02 4.666010674443e+02 9.256301156053e-02
4.909547738693e+00 4.609000000000e+01 3.370001900000e+02 1.796050000000e+02 4.956933255582e+02 9.298087673078e-02
5.007537688442e+00 4.895000000000e+01 3.589050700000e+02 1.912250000000e+02 5.259703819572e+02 9.306607687271e-02
5.105527638191e+00 5.172500000000e+01 3.798757500000e+02 2.023400000000e+02 5.574558840994e+02 9.278761149604e-02
5.203517587940e+00 5.468500000000e+01 4.009995300000e+02 2.136200000000e+02 5.901734794429e+02 9.265919582090e-02
5.301507537688e+00 5.786000000000e+01 4.245276950000e+02 2.261350000000e+02 6.241468154457e+02 9.270254781109e-02
5.399497487437e+00 6.112500000000e+01 4.483793350000e+02 2.388400000000e+02 6.593995395660e+02 9.269797191582e-02
5.497487437186e+00 6.435000000000e+01 4.723634950000e+02 2.515900000000e+02 6.959552992619e+02 9.246283499565e-02
5.595477386935e+00 6.779000000000e+01 4.968722550000e+02 2.646850000000e+02 7.338377419914e+02 9.237736916616e-02
5.693467336683e+00 7.138000000000e+01 5.226825950000e+02 2.784550000000e+02 7.730705152127e+02 9.233310363720e-02
5.791457286432e+00 7.512000000000e+01 5.507100900000e+02 2.933250000000e+02 8.136772663838e+02 9.232161583407e-02
5.889447236181e+00 7.916500000000e+01 5.798041350000e+02 3.088450000000e+02 8.556816429628e+02 9.251688481465e-02
5.987437185930e+00 8.311500000000e+01 6.084832500000e+02 3.241450000000e+02 8.991072924079e+02 9.244169266763e-02
6.085427135678e+00 8.715500000000e+01 6.369979000000e+02 3.394100000000e+02 9.439778621771e+02 9.232737704144e-02
6.183417085427e+00 9.127000000000e+01 6.660884500000e+02 3.549600000000e+02 9.903169997286e+02 9.216240862776e-02
6.281407035176e+00 9.542000000000e+01 6.954178050000e+02 3.706600000000e+02 1.038148352520e+03 9.191364583717e-02
6.379396984925e+00 9.995500000000e+01 7.295019350000e+02 3.887550000000e+02 1.087495568011e+03 9.191301825980e-02
6.477386934673e+00 1.046400000000e+02 7.610358150000e+02 4.057350000000e+02 1.138382293657e+03 9.191991177571e-02
6.575376884422e+00 1.095700000000e+02 7.959673650000e+02 4.244100000000e+02 1.190832176918e+03 9.201128599290e-02
6.673366834171e+00 1.145100000000e+02 8.294834600000e+02 4.424400000000e+02 1.244868865252e+03 9.198559237545e-02
6.771356783920e+00 1.197350000000e+02 8.679736900000e+02 4.629250000000e+02 1.300516006117e+03 9.206730208379e-02
6.869346733668e+00 1.248750000000e+02 9.042469800000e+02 4.823450000000e+02 1.357797246971e+03 9.196881219090e-02
6.967336683417e+00 1.305600000000e+02 9.432254050000e+02 5.033100000000e+02 1.416736235272e+03 9.215547449802e-02
7.065326633166e+00 1.364300000000e+02 9.841680600000e+02 5.252750000000e+02 1.477356618477e+03 9.234737117204e-02
7.163316582915e+00 1.421400000000e+02 1.025803575000e+03 5.474750000000e+02 1.539682044046e+03 9.231776167659e-02
7.261306532663e+00 1.475550000000e+02 1.065693915000e+03 5.687050000000e+02 1.603736159437e+03 9.200702941801e-02
7.359296482412e+00 1.532200000000e+02 1.107491940000e+03 5.909650000000e+02 1.669542612106e+03 9.177363841388e-02
7.457286432161e+00 1.590450000000e+02 1.149671745000e+03 6.134700000000e+02 1.737125049513e+03 9.155644842297e-02
7.555276381910e+00 1.648050000000e+02 1.192230915000e+03 6.361150000000e+02 1.806507119116e+03 9.122853613811e-02
7.653266331658e+00 1.707100000000e+02 1.232910590000e+03 6.579600000000e+02 1.877712468372e+03 9.091381288425e-02
7.751256281407e+00 1.769300000000e+02 1.275367495000e+03 6.807950000000e+02 1.950764744740e+03 9.069776377550e-02
7.849246231156e+00 1.834550000000e+02 1.322893070000e+03 7.061250000000e+02 2.025687595678e+03 9.056431030699e-02
7.947236180905e+00 1.899550000000e+02 1.369943255000e+03 7.312350000000e+02 2.102504668644e+03 9.034700509014e-02
8.045226130653e+00 1.968850000000e+02 1.418802955000e+03 7.574200000000e+02 2.181239611095e+03 9.026289408944e-02
8.143216080402e+00 2.036700000000e+02 1.467685415000e+03 7.835300000000e+02 2.261916070491e+03 9.004312876903e-02
8.241206030151e+00 2.107000000000e+02 1.517492115000e+03 8.101850000000e+02 2.344557694290e+03 8.986769679977e-02
8.339195979899e+00 2.182100000000e+02 1.568047635000e+03 8.374200000000e+02 2.429188129948e+03 8.982836582717e-02
8.437185929648e+00 2.259200000000e+02 1.622790945000e+03 8.667050000000e+02 2.515831024925e+03 8.979935367747e-02
8.535175879397e+00 2.339300000000e+02 1.681394300000e+03 8.979500000000e+02 2.604510026679e+03 8.981727756999e-02
8.633165829146e+00 2.415800000000e+02 1.736632365000e+03 9.274300000000e+02 2.695248782667e+03 8.963180006003e-02
8.731155778894e+00 2.493450000000e+02 1.792456870000e+03 9.572550000000e+02 2.788070940347e+03 8.943280330196e-02
8.829145728643e+00 2.574950000000e+02 1.848639695000e+03 9.874050000000e+02 2.883000147179e+03 8.931494514559e-02
8.927135678392e+00 2.660500000000e+02 1.907486555000e+03 1.019035000000e+03 2.980060050619e+03 8.927672445551e-02
9.025125628141e+00 2.750650000000e+02 1.971824860000e+03 1.053440000000e+03 3.079274298127e+03 8.932786538937e-02
9.123115577889e+00 2.837550000000e+02 2.032525235000e+03 1.085985000000e+03 3.180666537159e+03 8.921243289258e-02
9.221105527638e+00 2.927150000000e+02 2.096301435000e+03 1.120085000000e+03 3.284260415175e+03 8.912661086420e-02
9.319095477387e+00 3.020000000000e+02 2.159657255000e+03 1.154185000000e+03 3.390079579632e+03 8.908345450486e-02
9.417085427136e+00 3.112550000000e+02 2.226634590000e+03 1.189930000000e+03 3.498147677988e+03 8.897708977770e-02
9.515075376884e+00 3.207300000000e+02 2.291405615000e+03 1.224755000000e+03 3.608488357702e+03 8.888209361004e-02
9.613065326633e+00 3.307650000000e+02 2.365413300000e+03 1.264160000000e+03 3.721125266231e+03 8.888843463606e-02
9.711055276382e+00 3.405700000000e+02 2.437826275000e+03 1.302670000000e+03 3.836082051034e+03 8.878068703149e-02
9.809045226131e+00 3.506200000000e+02 2.510710155000e+03 1.341535000000e+03 3.953382359569e+03 8.868861347330e-02
9.907035175879e+00 3.611700000000e+02 2.589295290000e+03 1.383340000000e+03 4.073049839294e+03 8.867311087522e-02
1.000502512563e+01 3.718150000000e+02 2.666824335000e+03 1.424635000000e+03 4.195108137666e+03 8.863061160727e-02
1.010301507538e+01 3.828300000000e+02 2.744165120000e+03 1.466035000000e+03 4.319580902145e+03 8.862665352787e-02
1.020100502513e+01 3.936450000000e+02 2.822176735000e+03 1.507640000000e+03 4.446491780188e+03 8.852934390972e-02
1.029899497487e+01 4.043450000000e+02 2.897334715000e+03 1.547895000000e+03 4.575864419253e+03 8.836472477173e-02
1.039698492462e+01 4.153000000000e+02 2.975739420000e+03 1.589765000000e+03 4.707722466798e+03 8.821675511438e-02
1.049497487437e+01 4.266850000000e+02 3.057746125000e+03 1.633565000000e+03 4.842089570282e+03 8.812001385079e-02
1.059296482412e+01 4.386900000000e+02 3.144163415000e+03 1.679685000000e+03 4.978989377162e+03 8.810824180751e-02
1.069095477387e+01 4.508250000000e+02 3.230474690000e+03 1.725835000000e+03 5.118445534897e+03 8.807849901427e-02
1.078894472362e+01 4.631400000000e+02 3.318109175000e+03 1.772685000000e+03 5.260481690944e+03 8.804136716173e-02
1.088693467337e+01 4.755050000000e+02 3.406268665000e+03 1.819795000000e+03 5.405121492763e+03 8.797304568208e-02
1.098492462312e+01 4.880000000000e+02 3.495071155000e+03 1.867300000000e+03 5.552388587810e+03 8.789010212135e-02
1.108291457286e+01 5.010650000000e+02 3.586802460000e+03 1.916445000000e+03 5.702306623544e+03 8.787058169253e-02
1.118090452261e+01 5.145250000000e+02 3.682923630000e+03 1.967785000000e+03 5.854899247423e+03 8.787939437667e-02
1.127889447236e+01 5.276250000000e+02 3.780746485000e+03 2.019775000000e+03 6.010190106906e+03 8.778840446224e-02
1.137688442211e+01 5.405550000000e+02 3.871960010000e+03 2.068580000000e+03 6.168202849450e+03 8.763573656600e-02
1.147487437186e+01 5.543850000000e+02 3.971425550000e+03 2.121675000000e+03 6.328961122513e+03 8.759494477348e-02
1.157286432161e+01 5.681850000000e+02 4.071004945000e+03 2.174800000000e+03 6.492488573553e+03 8.751420869872e-02
1.167085427136e+01 5.822200000000e+02 4.170542650000e+03 2.228015000000e+03 6.658808850029e+03 8.743605847725e-02
1.176884422111e+01 5.966250000000e+02 4.273636810000e+03 2.283105000000e+03 6.827945599399e+03 8.737987016951e-02
1.186683417085e+01 6.109600000000e+02 4.377959395000e+03 2.338695000000e+03 6.999922469121e+03 8.728096671001e-02
1.196482412060e+01 6.256650000000e+02 4.479890190000e+03 2.393395000000e+03 7.174763106652e+03 8.720357602050e-02
1.206281407035e+01 6.405250000000e+02 4.586953970000e+03 2.450565000000e+03 7.352491159452e+03 8.711673174562e-02
1.216080402010e+01 6.552450000000e+02 4.691421735000e+03 2.506415000000e+03 7.533130274977e+03 8.698176934183e-02
1.225879396985e+01 6.705100000000e+02 4.799059430000e+03 2.564060000000e+03 7.716704100686e+03 8.689072319624e-02
1.235678391960e+01 6.859050000000e+02 4.906495630000e+03 2.621630000000e+03 7.903236284038e+03 8.678786453409e-02
1.245477386935e+01 7.017300000000e+02 5.019558965000e+03 2.682040000000e+03 8.092750472490e+03 8.671093991905e-02
1.255276381910e+01 7.176550000000e+02 5.132547125000e+03 2.742475000000e+03 8.285270313501e+03 8.661817573177e-02
1.265075376884e+01 7.338450000000e+02 5.250423240000e+03 2.805285000000e+03 8.480819454528e+03 8.652996375347e-02
1.274874371859e+01 7.500400000000e+02 5.367303840000e+03 2.867645000000e+03 8.679421543029e+03 8.641589722098e-02
1.284673366834e+01 7.661200000000e+02 5.483480450000e+03 2.929635000000e+03 8.881100226464e+03 8.626408670821e-02
1.294472361809e+01 7.827150000000e+02 5.600489065000e+03 2.992310000000e+03 9.085879152289e+03 8.614631417399e-02
1.304271356784e+01 8.000750000000e+02 5.724629080000e+03 3.058645000000e+03 9.293781967963e+03 8.608712822810e-02
1.314070351759e+01 8.169600000000e+02 5.844352990000e+03 3.122695000000e+03 9.504832320944e+03 8.595206863353e-02
1.323869346734e+01 8.344850000000e+02 5.971664680000e+03 3.190565000000e+03 9.719053858690e+03 8.586072390718e-02
1.333668341709e+01 8.518900000000e+02 6.094014890000e+03 3.256080000000e+03 9.936470228659e+03 8.573366400706e-02
1.343467336683e+01 8.703350000000e+02 6.227167815000e+03 3.327130000000e+03 1.015710507831e+04 8.568730886309e-02
1.353266331658e+01 8.881550000000e+02 6.357008795000e+03 3.396335000000e+03 1.038098205510e+04 8.555597103298e-02
1.363065326633e+01 9.062950000000e+02 6.489000545000e+03 3.466685000000e+03 1.060812480649e+04 8.543404386096e-02
1.372864321608e+01 9.245000000000e+02 6.619972750000e+03 3.536600000000e+03 1.083855697993e+04 8.529733263495e-02
1.382663316583e+01 9.433250000000e+02 6.758485930000e+03 3.610345000000e+03 1.107230222289e+04 8.519682546690e-02
1.392462311558e+01 9.617800000000e+02 6.890204640000e+03 3.680735000000e+03 1.130938418282e+04 8.504264993150e-02
1.402261306533e+01 9.811250000000e+02 7.029282090000e+03 3.754980000000e+03 1.154982650717e+04 8.494716343926e-02
1.412060301508e+01 9.999900000000e+02 7.164635590000e+03 3.827235000000e+03 1.179365284342e+04 8.479052362118e-02
1.421859296482e+01 1.019565000000e+03 7.304004110000e+03 3.901725000000e+03 1.204088683901e+04 8.467524141965e-02
1.431658291457e+01 1.039625000000e+03 7.449288155000e+03 3.979230000000e+03 1.229155214141e+04 8.458044907914e-02
1.441457286432e+01 1.060370000000e+03 7.599227255000e+03 4.059260000000e+03 1.254567239807e+04 8.452077866814e-02
1.451256281407e+01 1.081030000000e+03 7.746107375000e+03 4.137785000000e+03 1.280327125645e+04 8.443389024159e-02
1.461055276382e+01 1.101220000000e+03 7.892486695000e+03 4.215835000000e+03 1.306437236400e+04 8.429184114763e-02
1.470854271357e+01 1.121825000000e+03 8.042941215000e+03 4.296000000000e+03 1.332899936820e+04 8.416423236366e-02
1.480653266332e+01 1.143175000000e+03 8.197405370000e+03 4.378380000000e+03 1.359717591649e+04 8.407444362134e-02
1.490452261307e+01 1.164440000000e+03 8.350209440000e+03 4.459975000000e+03 1.386892565633e+04 8.396036065482e-02
1.500251256281e+01 1.186040000000e+03 8.501913965000e+03 4.541260000000e+03 1.414427223518e+04 8.385302405664e-02
1.510050251256e+01 1.208330000000e+03 8.660814860000e+03 4.626195000000e+03 1.442323930050e+04 8.377660349560e-02
1.519849246231e+01 1.230050000000e+03 8.816711285000e+03 4.709410000000e+03 1.470585049975e+04 8.364358117344e-02
1.529648241206e+01 1.252760000000e+03 8.984881835000e+03 4.798830000000e+03 1.499212948038e+04 8.356117799273e-02
1.539447236181e+01 1.274970000000e+03 9.146755935000e+03 4.885085000000e+03 1.528209988986e+04 8.342897960288e-02
1.549246231156e+01 1.297120000000e+03 9.307799895000e+03 4.970930000000e+03 1.557578537563e+04 8.327798365977e-02
1.559045226131e+01 1.319590000000e+03 9.470699990000e+03 5.057770000000e+03 1.587320958517e+04 8.313315545413e-02
1.568844221106e+01 1.343010000000e+03 9.636796290000e+03 5.146575000000e+03 1.617439616592e+04 8.303308427856e-02
1.578643216080e+01 1.366450000000e+03 9.804905985000e+03 5.236355000000e+03 1.647936876535e+04 8.291883138587e-02
1.588442211055e+01 1.390305000000e+03 9.976414270000e+03 5.327920000000e+03 1.678815103092e+04 8.281465882929e-02
1.598241206030e+01 1.413540000000e+03 1.014532472000e+04 5.418010000000e+03 1.710076661007e+04 8.265945218897e-02
1.608040201005e+01 1.437510000000e+03 1.031563112500e+04 5.509075000000e+03 1.741723915028e+04 8.253374645643e-02
1.617839195980e+01 1.461245000000e+03 1.048839535500e+04 5.601140000000e+03 1.773759229899e+04 8.238124855780e-02
1.627638190955e+01 1.485515000000e+03 1.066150417000e+04 5.693645000000e+03 1.806184970367e+04 8.224600604988e-02
1.637437185930e+01 1.509885000000e+03 1.083479153500e+04 5.786255000000e+03 1.839003501177e+04 8.210343259452e-02
1.647236180905e+01 1.533835000000e+03 1.101192483000e+04 5.880440000000e+03 1.872217187076e+04 8.192612537628e-02
1.657035175879e+01 1.559070000000e+03 1.119394094000e+04 5.977545000000e+03 1.905828392808e+04 8.180537166321e-02
1.666834170854e+01 1.583555000000e+03 1.137246783000e+04 6.072700000000e+03 1.939839483121e+04 8.163330078489e-02
1.676633165829e+01 1.609030000000e+03 1.155438194500e+04 6.169915000000e+03 1.974252822759e+04 8.150070656865e-02
1.686432160804e+01 1.633925000000e+03 1.173506303500e+04 6.266230000000e+03 2.009070776468e+04 8.132739867294e-02
1.696231155779e+01 1.659985000000e+03 1.192089203000e+04 6.365620000000e+03 2.044295708995e+04 8.120082592238e-02
1.706030150754e+01 1.684790000000e+03 1.209910353000e+04 6.460775000000e+03 2.079929985085e+04 8.100224584873e-02
1.715829145729e+01 1.711040000000e+03 1.228883519500e+04 6.561975000000e+03 2.115975969484e+04 8.086292210669e-02
1.725628140704e+01 1.736790000000e+03 1.247518498500e+04 6.661380000000e+03 2.152436026937e+04 8.068950613465e-02
1.735427135678e+01 1.763565000000e+03 1.266503473000e+04 6.762950000000e+03 2.189312522191e+04 8.055336924830e-02
1.745226130653e+01 1.789200000000e+03 1.284734728500e+04 6.860420000000e+03 2.226607819992e+04 8.035541705799e-02
